11
22
tw_citadel by ultraman
13
czeresnia.bmp
ff5a706d
ff000000
12
5
5
0
1
787126
722
503
14
0
142
0
16
0
33
3
11
55
-78
71
26
39
18
0
71
26
95
-78
103
26
0
95
-78
71
26
55
-78
0
-1225
-174
-1217
-174
-1217
-62
3
-1217
-62
-1225
-62
-1225
-174
3
-4550
-182
-4511
-180
-4560
-66
0
-4511
-180
-4502
-177
-4560
-66
0
-4502
-177
-4497
-165
-4560
-66
0
-4497
-165
-4483
-149
-4560
-66
0
-4483
-149
-4480
-120
-4560
-66
0
-4480
-120
-4465
-115
-4560
-66
0
-4465
-115
-4449
-115
-4465
-59
0
-4449
-115
-4409
-142
-4465
-59
0
-4409
-142
-4387
-142
-4465
-59
0
-4387
-142
-4373
-138
-4465
-59
0
-4373
-138
-4348
-123
-4465
-59
0
-4348
-123
-4312
-123
-4296
-52
0
-4312
-123
-4287
-112
-4296
-52
0
-4287
-112
-4279
-85
-4296
-52
0
-4279
-85
-4262
-85
-4296
-52
0
-4262
-85
-4243
-85
-4222
-51
0
-4243
-85
-4234
-110
-4222
-51
0
-4234
-110
-4214
-121
-4222
-51
0
-4214
-121
-4176
-124
-4222
-51
0
-4436
-183
-4344
-189
-4341
-181
0
-4341
-181
-4434
-175
-4436
-183
0
-4436
-183
-4434
-178
-4443
-178
0
-4443
-178
-4434
-178
-4442
-175
0
-4442
-175
-4434
-178
-4434
-175
0
-4344
-189
-4263
-182
-4266
-172
0
-4266
-172
-4341
-181
-4344
-189
0
-4263
-182
-4198
-191
-4195
-183
0
-4195
-183
-4266
-172
-4263
-182
0
-4176
-124
-4145
-133
-4222
-51
0
-4145
-133
-4113
-133
-4127
-48
0
-4113
-133
-4080
-141
-4127
-48
0
-4080
-141
-4051
-140
-4127
-48
0
-4051
-140
-4030
-127
-4127
-48
0
-4030
-127
-3995
-129
-4005
-47
0
-4198
-191
-4116
-186
-4116
-177
0
-4116
-177
-4195
-183
-4198
-191
0
-4116
-186
-4049
-191
-4049
-182
0
-4049
-182
-4116
-177
-4116
-186
0
-4049
-191
-4006
-188
-4008
-179
0
-4008
-179
-4049
-182
-4049
-191
0
-4006
-188
-3999
-184
-4007
-184
0
-3999
-184
-3999
-180
-4007
-184
0
-3999
-180
-4008
-179
-4007
-184
0
-4560
-66
-4465
-115
-4465
-59
0
-4465
-59
-4348
-123
-4296
-52
0
-4296
-52
-4262
-85
-4222
-51
0
-4222
-51
-4145
-133
-4127
-48
0
-4127
-48
-4030
-127
-4005
-47
0
-3995
-129
-3961
-149
-3890
-45
0
-3961
-149
-3950
-167
-3890
-45
0
-3950
-167
-3934
-179
-3890
-45
0
-3934
-179
-3902
-181
-3890
-45
0
-3890
-45
-4005
-47
-3995
-129
0
-4550
-182
-4560
-66
-4580
-202
0
-4580
-202
-4654
-108
-4596
-251
0
-4596
-251
-4654
-108
-4598
-293
0
-4598
-293
-4676
-281
-4592
-357
0
-4592
-357
-4676
-281
-4601
-402
0
-4601
-402
-4676
-281
-4603
-459
0
-4603
-459
-4711
-505
-4614
-515
0
-4614
-515
-4711
-505
-4604
-568
5
-4604
-568
-4711
-505
-4616
-596
5
-4616
-596
-4711
-505
-4657
-610
5
-4657
-610
-4711
-505
-4715
-610
5
-4715
-610
-4711
-505
-4785
-626
5
-4785
-626
-4711
-505
-4846
-624
5
-4846
-624
-4711
-505
-4891
-578
5
-4891
-578
-4711
-505
-4880
-487
5
-4880
-487
-4711
-505
-4831
-410
0
-4831
-410
-4676
-281
-4827
-316
0
-4827
-316
-4676
-281
-4840
-223
0
-4840
-223
-4676
-281
-4824
-135
0
-4824
-135
-4654
-108
-4821
-59
0
-4654
-108
-4824
-135
-4676
-281
0
-4654
-108
-4676
-281
-4598
-293
0
-4676
-281
-4711
-505
-4603
-459
0
-4711
-505
-4676
-281
-4831
-410
0
-3902
-181
-3859
-199
-3890
-45
0
-3859
-199
-3818
-205
-3890
-45
0
-3818
-205
-3776
-196
-3890
-45
0
-3776
-196
-3750
-162
-3890
-45
0
-3750
-162
-3716
-135
-3890
-45
0
-3716
-135
-3671
-119
-3617
-34
0
-3617
-34
-3890
-45
-3716
-135
0
-4654
-108
-4580
-202
-4560
-66
0
-3671
-119
-3632
-125
-3617
-34
0
-3632
-125
-3602
-125
-3617
-34
0
-3602
-125
-3576
-118
-3617
-34
0
-3576
-118
-3540
-141
-3617
-34
0
-3540
-141
-3508
-170
-3617
-34
0
-3508
-170
-3477
-180
-3387
-34
0
-3477
-180
-3421
-183
-3387
-34
0
-3387
-34
-3617
-34
-3508
-170
0
-3714
-202
-3656
-212
-3684
-186
0
-3714
-202
-3716
-217
-3656
-212
0
-3716
-217
-3705
-226
-3656
-212
0
-3705
-226
-3660
-226
-3656
-212
0
-3660
-226
-3636
-232
-3656
-212
0
-3636
-232
-3606
-229
-3656
-212
0
-3606
-229
-3576
-221
-3656
-212
0
-3576
-221
-3556
-217
-3656
-212
0
-3556
-217
-3542
-205
-3656
-212
0
-3542
-205
-3547
-188
-3656
-212
0
-3547
-188
-3586
-172
-3656
-212
0
-3684
-186
-3656
-212
-3672
-172
0
-3672
-172
-3656
-212
-3644
-172
0
-3644
-172
-3656
-212
-3627
-180
0
-3627
-180
-3656
-212
-3586
-172
0
-3421
-183
-3370
-152
-3387
-34
0
-3370
-152
-3345
-112
-3387
-34
0
-3345
-112
-3312
-93
-3387
-34
0
-3312
-93
-3258
-98
-3271
-3
0
-3271
-3
-3387
-34
-3312
-93
0
-3258
-98
-3197
-113
-3271
-3
0
-3197
-113
-3068
-113
-3114
-3
0
-3114
-3
-3271
-3
-3197
-113
0
-3068
-113
-3051
-125
-3114
-3
0
-3051
-125
-3036
-125
-3114
-3
0
-3036
-125
-3026
-113
-3114
-3
0
-3026
-113
-2981
-106
-3114
-3
0
-2981
-106
-2921
-109
-2908
1
0
-2908
1
-3114
-3
-2981
-106
0
-2921
-109
-2875
-98
-2908
1
0
-2875
-98
-2853
-76
-2908
1
0
-2853
-76
-2824
-67
-2908
1
0
-2824
-67
-2773
-75
-2699
4
0
-2699
4
-2908
1
-2824
-67
0
-3715.7216796875
-129.96147155762
-3714.0327148438
-202.80073547363
-3709.388671875
-203.06573486328
3
-3709.388671875
-203.06573486328
-3711.3415527344
-128.48593139648
-3715.7216796875
-129.96147155762
3
-3637
-179
-3643
-121
-3649
-120
3
-3649
-120
-3642
-180
-3637
-179
3
-3590
-176
-3576
-118
-3582
-116
3
-3582
-116
-3596
-176
-3590
-176
3
-3642
-156
-3592
-171
-3590
-167
3
-3590
-167
-3642
-152
-3642
-156
3
-3545.2641601562
-195.75311279297
-3542.5114746094
-135.54638671875
-3547.19921875
-134.49519348145
3
-3547.19921875
-134.49519348145
-3550.3276367188
-198.8928527832
-3545.2641601562
-195.75311279297
3
-3640
-165
-3585
-143
-3584
-139
3
-3584
-139
-3641
-161
-3640
-165
3
-3642
-152
-3712
-151
-3712
-154
3
-3712
-154
-3642
-156
-3642
-152
3
-3646
-131
-3713
-179
-3713
-183
3
-3713
-183
-3644
-135
-3646
-131
3
-3590
-167
-3546
-152
-3546
-148
3
-3546
-152
-3590
-167
-3592
-171
3
-3585
-143
-3548
-181
-3547
-177
3
-3547
-177
-3584
-139
-3585
-143
3
-2773
-75
-2731
-106
-2699
4
0
-2731
-106
-2692
-111
-2699
4
0
-2692
-111
-2648
-136
-2699
4
7
-2648
-136
-2600
-130
-2699
4
7
-2600
-130
-2568
-89
-2699
4
7
-2568
-89
-2573
-62
-2699
4
0
-2573
-62
-2558
-43
-2699
4
0
-2558
-43
-2508
-38
-2586
13
0
-2508
-38
-2450
-51
-2586
13
0
-2450
-51
-2384
-50
-2586
13
0
-2384
-50
-2341
-72
-2273
11
0
-2586
13
-2699
4
-2558
-43
0
-2586
13
-2384
-50
-2273
11
0
-2341
-72
-2265
-97
-2273
11
0
-2265
-97
-2203
-150
-2273
11
0
-2203
-150
-2136
-166
-2273
11
0
-2136
-166
-2072
-149
-1943
13
0
-1943
13
-2273
11
-2136
-166
0
-2072
-149
-1985
-155
-1943
13
0
-1985
-155
-1910
-150
-1943
13
7
-3119
-147
-3051
-147
-3052
-138
0
-3052
-138
-3119
-140
-3119
-147
0
-3647
-334
-3639
-334
-3647
-226
3
-3647
-226
-3654
-224
-3647
-334
3
-3613
-334
-3601
-225
-3606
-229
3
-3601
-225
-3613
-334
-3606
-335
3
-3654
-334
-3597
-337
-3597
-333
0
-3597
-337
-3654
-334
-3656
-339
0
-3649
-278
-3610
-312
-3608
-307
3
-3608
-307
-3648
-273
-3649
-278
3
-3644
-314
-3608
-276
-3647
-309
3
-3608
-276
-3644
-314
-3605
-281
3
-3654
-369
-3600
-374
-3600
-368
1
-3600
-374
-3654
-369
-3656
-375
1
-1910
-150
-1859
-114
-1943
13
7
-1859
-114
-1801
-104
-1943
13
7
-1801
-104
-1733
-116
-1652
14
0
-1652
14
-1943
13
-1801
-104
0
-1733
-116
-1690
-153
-1652
14
0
-1690
-153
-1647
-162
-1652
14
0
-1647
-162
-1595
-152
-1652
14
0
-1595
-152
-1563
-116
-1652
14
0
-1563
-116
-1480
-92
-1652
14
0
-1480
-92
-1449
-63
-1652
14
0
-1449
-63
-1388
-56
-1381
24
0
-1388
-56
-1357
-36
-1381
24
0
-1357
-36
-1324
-42
-1381
24
0
-1324
-42
-1239
-54
-1381
24
0
-1239
-54
-1191
-82
-1097
30
0
-1191
-82
-1180
-111
-1097
30
0
-1180
-111
-1143
-130
-1097
30
7
-1143
-130
-1084
-128
-1097
30
7
-1097
30
-1381
24
-1239
-54
0
-1652
14
-1449
-63
-1381
24
0
-1505
-158
-1364
-168
-1460
-151
0
-1460
-151
-1364
-168
-1438
-129
0
-1438
-129
-1364
-168
-1389
-108
0
-1389
-108
-1364
-168
-1353
-113
0
-1353
-113
-1364
-168
-1258
-104
0
-1258
-104
-1364
-168
-1233
-116
0
-1505
-158
-1513
-174
-1364
-168
0
-1513
-174
-1508
-187
-1364
-168
0
-1233
-116
-1364
-168
-1230
-138
0
-1227
-189
-1212
-178
-1364
-168
0
-1212
-178
-1225
-157
-1364
-168
0
-1225
-157
-1230
-138
-1364
-168
0
-1505
-166
-1497
-94
-1505
-94
3
-1497
-94
-1505
-166
-1497
-166
3
-1434
-134
-1445
-59
-1452
-61
3
-1445
-59
-1434
-134
-1428
-129
3
-1367
-116
-1359
-33
-1364
-35
3
-1359
-33
-1367
-116
-1362
-117
3
-1300
-113
-1288
-43
-1293
-42
3
-1288
-43
-1300
-113
-1294
-112
3
-1501
-108
-1435
-121
-1435
-116
3
-1435
-116
-1500
-103
-1501
-108
3
-1501
-149
-1443
-82
-1445
-78
3
-1445
-78
-1502
-142
-1501
-149
3
-1443
-82
-1363
-106
-1363
-100
3
-1363
-100
-1445
-78
-1443
-82
3
-1435
-116
-1362
-58
-1362
-53
3
-1362
-58
-1435
-116
-1435
-121
3
-1362
-58
-1297
-104
-1296
-99
3
-1296
-99
-1362
-53
-1362
-58
3
-1363
-100
-1292
-61
-1292
-56
3
-1292
-61
-1363
-100
-1363
-106
3
-1296
-99
-1221
-73
-1221
-69
3
-1221
-73
-1296
-99
-1297
-104
3
-1292
-61
-1222
-148
-1221
-142
3
-1221
-142
-1292
-56
-1292
-61
3
-1394.6667480469
-223.58280944824
-1318.7390136719
-231.02655029297
-1313.9182128906
-229.16561889648
1
-1313.9182128906
-229.16561889648
-1313.9182128906
-227.30467224121
-1395.8720703125
-220.79139709473
1
-1394.6667480469
-223.58280944824
-1313.9182128906
-229.16561889648
-1395.8720703125
-220.79139709473
1
-1395.8720703125
-220.79139709473
-1313.9182128906
-227.30467224121
-1395.8720703125
-218.93048095703
1
-1313.9182128906
-227.30467224121
-1316.3286132812
-225.44375610352
-1395.8720703125
-218.93048095703
1
-1395.8720703125
-218.93048095703
-1316.3286132812
-225.44375610352
-1389.8459472656
-218
1
-1508
-187
-1448
-188
-1364
-168
0
-1448
-188
-1409
-190
-1364
-168
7
-1227
-189
-1364
-168
-1263
-185
0
-1364
-168
-1320
-183
-1261.875
-184.9375
7
-1320
-183
-1364
-168
-1388
-189
0
-1409
-190
-1388
-189
-1364
-168
7
-2288
-110
-2270
-115
-2265
-97
0
-2265
-97
-2282
-92
-2288
-110
0
-1084
-128
-1025
-103
-1097
30
7
-1025
-103
-993.36254882812
-76.17919921875
-1097
30
0
-993.36254882812
-76.17919921875
-973.0751953125
-61.125030517578
-1097
30
0
-973.0751953125
-61.125030517578
-943.40844726562
-44.492584228516
-1097
30
0
-943.40844726562
-44.492584228516
-892.8662109375
-42.387512207031
-913
37
7
-913
37
-1097
30
-943.40844726562
-44.492584228516
0
-892.8662109375
-42.387512207031
-859.74609375
-46.492401123047
-913
37
7
-859.74609375
-46.492401123047
-788
-46
-771
35
7
-771
35
-913
37
-859.74609375
-46.492401123047
7
-788
-46
-727
-81
-771
35
0
-727
-81
-679
-86
-771
35
0
-679
-86
-636
-111
-771
35
0
-636
-111
-569
-117
-771
35
0
-569
-117
-492
-95
-319
32
0
-319
32
-771
35
-569
-117
0
-492
-95
-419
-96
-319
32
0
-419
-96
-363
-72
-319
32
7
-363
-72
-320
-72
-319
32
8
-320
-72
-265
-86
-265
34
7
-265
34
-319
32
-320
-72
0
-884.7119140625
-147.65447998047
-876.7119140625
-147.65447998047
-884.7119140625
-39.654479980469
3
-884.7119140625
-39.654479980469
-891.7119140625
-37.654479980469
-884.7119140625
-147.65447998047
3
-850.7119140625
-147.65447998047
-838.71166992188
-38.654479980469
-843.7119140625
-42.654479980469
3
-838.71166992188
-38.654479980469
-850.7119140625
-147.65447998047
-843.7119140625
-148.65447998047
3
-891.7119140625
-147.65447998047
-834.71166992188
-150.65447998047
-834.71166992188
-146.65447998047
0
-834.71166992188
-150.65447998047
-891.7119140625
-147.65447998047
-893.7119140625
-152.65447998047
0
-886.7119140625
-91.65446472168
-847.7119140625
-125.65447998047
-845.7119140625
-120.65447998047
3
-845.7119140625
-120.65447998047
-885.7119140625
-86.65446472168
-886.7119140625
-91.65446472168
3
-881.7119140625
-127.65447998047
-845.7119140625
-89.65446472168
-884.7119140625
-122.65447998047
3
-845.7119140625
-89.65446472168
-881.7119140625
-127.65447998047
-842.7119140625
-94.65446472168
3
-891.7119140625
-182.65466308594
-837.71166992188
-187.65466308594
-837.71166992188
-181.65464782715
1
-837.71166992188
-187.65466308594
-891.7119140625
-182.65466308594
-893.7119140625
-188.65466308594
1
-4821
-59
-4654
-108
-4794
434
0
-4794
434
-4560
-66
-4607
535
0
-4607
535
-3890
-45
-4027
544
0
-4560
-66
-4794
434
-4654
-108
0
-4607
535
-4560
-66
-4465
-59
0
-4465
-59
-4296
-52
-4607
535
0
-4607
535
-4296
-52
-4222
-51
0
-4222
-51
-4127
-48
-4607
535
0
-4607
535
-4005
-47
-3890
-45
0
-4005
-47
-4607
535
-4127
-48
0
-4027
544
-3617
-34
-3250
607
0
-3617
-34
-4027
544
-3890
-45
0
-3250
607
-2908
1
-2685
610
0
-2908
1
-3250
607
-3114
-3
0
-3250
607
-3271
-3
-3114
-3
0
-3271
-3
-3250
607
-3387
-34
0
-3250
607
-3617
-34
-3387
-34
0
-2908
1
-2699
4
-2685
610
0
-2685
610
-1943
13
-1700
626.67700195312
0
-1943
13
-2685
610
-2273
11
0
-2685
610
-2699
4
-2586
13
0
-2586
13
-2273
11
-2685
610
0
-1700
626.67700195312
-1943
13
-1652
14
0
-1652
14
-1381
24
-1700
626.67700195312
0
-1700
626.67700195312
-1381
24
-1097
30
0
-1700
626.67700195312
-771
35
-516
617.35400390625
0
-771
35
-1700
626.67700195312
-913
37
0
-1700
626.67700195312
-1097
30
-913
37
0
-516
617.35400390625
-319
32
-265
34
0
-319
32
-516
617.35400390625
-771
35
0
-265
-86
-235
-84
-265
34
0
-235
-84
-180
-79
-265
34
0
-180
-79
-147
-82
-265
34
0
-147
-82
-132
-86
-265
34
0
-132
-86
-127
-81
-265
34
0
-127
-81
-127
-59
-265
34
0
-127
-59
-144
-19
-265
34
0
-144
-19
-131
14
-142
45
0
-131
14
-112
27
-142
45
0
-142
45
-265
34
-144
-19
0
-112
27
-75
19
-142
45
0
-75
19
-16
22
-42
49
0
-42
49
-142
45
-75
19
0
-16
22
36
16
-42
49
0
36
16
67
24
-42
49
0
67
24
107
21
88
55
0
88
55
-42
49
67
24
0
88
55
107
21
183
48
0
107
21
150
16
183
48
0
150
16
194
23
183
48
0
194
23
225
13
183
48
0
225
13
246
15
183
48
0
246
15
263
-7
351
49
0
263
-7
256
-29
351
49
0
256
-29
248
-54
351
49
0
248
-54
250
-76
351
49
0
250
-76
254.533203125
-83.812255859375
351
49
0
254.533203125
-83.812255859375
268.626953125
-88.157836914062
351
49
0
183
48
246
15
351
49
0
-134
-83
254.533203125
-83.812255859375
254
-72
0
254
-72
-133
-72
-134
-83
0
-516
617.35400390625
-142
45
376
610
0
-142
45
-516
617.35400390625
-265
34
0
376
610
183
48
351
49
0
183
48
376
610
88
55
0
376
610
-42
49
88
55
0
-42
49
376
610
-142
45
0
-197.94482421875
-183.26582336426
-189.94482421875
-183.26582336426
-197.94482421875
-75.265869140625
3
-158.94482421875
-156.26586914062
-198.94482421875
-122.26586914062
-199.94482421875
-127.26585388184
3
-197.94482421875
-75.265869140625
-204.94482421875
-73.265869140625
-197.94482421875
-183.26582336426
3
-194.94482421875
-163.26588439941
-158.94482421875
-125.26585388184
-197.94482421875
-158.26586914062
3
-158.94482421875
-125.26585388184
-194.94482421875
-163.26588439941
-155.94482421875
-130.26585388184
3
-199.94482421875
-127.26585388184
-160.94482421875
-161.26588439941
-158.94482421875
-156.26586914062
3
-151.94458007812
-74.265869140625
-163.94482421875
-183.26582336426
-156.94482421875
-184.26582336426
3
-163.94482421875
-183.26582336426
-151.94458007812
-74.265869140625
-156.94482421875
-78.265869140625
3
-204.94482421875
-183.26582336426
-147.94458007812
-186.26582336426
-147.94458007812
-182.26582336426
0
-147.94458007812
-186.26582336426
-204.94482421875
-183.26582336426
-206.94482421875
-188.26582336426
0
-150.94458007812
-223.26599121094
-204.94482421875
-218.26599121094
-206.94482421875
-224.26599121094
1
-204.94482421875
-218.26599121094
-150.94458007812
-223.26599121094
-150.94458007812
-217.26597595215
1
268.626953125
-88.157836914062
307
-85
351
49
0
307
-85
334
-93
351
49
0
334
-93
373
-91
351
49
7
373
-91
419
-95
351
49
8
419
-95
463
-87
351
49
7
463
-87
493
-63
351
49
0
493
-63
493
-39
351
49
0
493
-39
520
-24
351
49
0
520
-24
562
-31
578
44
0
578
44
351
49
520
-24
0
562
-31
592
-47
578
44
0
592
-47
622
-49
578
44
0
622
-49
650
-61
578
44
0
650
-61
683
-60
578
44
0
683
-60
709
-51
578
44
0
709
-51
753
-64
785
48
0
785
48
578
44
709
-51
0
753
-64
797
-56
785
48
0
797
-56
855
-63
785
48
0
855
-63
892
-47
785
48
0
892
-47
938
-49
785
48
0
329.40234375
-189.56848144531
329.40234375
-81.568542480469
321.40234375
-189.56848144531
3
290.40234375
-162.56857299805
331.40234375
-133.56855773926
330.40234375
-128.56857299805
3
329.40234375
-81.568542480469
329.40234375
-189.56848144531
336.40234375
-79.568542480469
3
326.40234375
-169.56858825684
329.40234375
-164.56857299805
290.40234375
-131.56855773926
3
290.40234375
-131.56855773926
287.40234375
-136.56855773926
326.40234375
-169.56858825684
3
331.40234375
-133.56855773926
290.40234375
-162.56857299805
292.40234375
-167.56858825684
3
283.40234375
-80.568542480469
288.40234375
-190.56848144531
295.40234375
-189.56848144531
3
295.40234375
-189.56848144531
288.40234375
-84.568542480469
283.40234375
-80.568542480469
3
336.40234375
-189.56848144531
279.40234375
-188.56848144531
279.40234375
-192.56848144531
0
279.40234375
-192.56848144531
338.40234375
-194.5684967041
336.40234375
-189.56848144531
0
282.40234375
-229.56866455078
338.40234375
-230.56866455078
336.40234375
-224.56866455078
1
336.40234375
-224.56866455078
282.40234375
-223.56866455078
282.40234375
-229.56866455078
1
376
610
785
48
807
610
0
785
48
376
610
578
44
0
376
610
351
49
578
44
0
938
-49
976
-67
1049
55
9
976
-67
1017
-76
1049
55
9
1017
-76
1050
-100
1049
55
0
1050
-100
1079
-111
1049
55
0
1049
55
785
48
938
-49
0
1079
-111
1118
-111
1049
55
0
1118
-111
1155
-90
1049
55
0
1155
-90
1175
-57
1049
55
0
1175
-57
1176
-27
1049
55
0
1176
-27
1201
-2
1049
55
0
1201
-2
1264
-8
1287
64
0
1287
64
1049
55
1201
-2
0
1264
-8
1311
5
1287
64
0
1311
5
1351
3
1287
64
0
1351
3
1387
5
1287
64
0
1387
5
1421
-7
1287
64
0
1421
-7
1456
-19
1513
63
0
1513
63
1287
64
1421
-7
0
1456
-19
1482
-39
1513
63
0
1482
-39
1507
-46
1513
63
0
1229
-137
1259
-153
1338
-108
9
1259
-153
1283
-173
1338
-108
9
1283
-173
1316
-184
1338
-108
9
1316
-184
1334
-190
1338
-108
9
1334
-190
1455
-190
1455
-110
0
1455
-110
1338
-108
1334
-190
0
1229
-137
1338
-108
1221
-112
9
1221
-112
1338
-108
1239
-80
0
1239
-80
1338
-108
1302
-65
0
1302
-65
1338
-108
1347
-78
0
1347
-78
1338
-108
1379
-65
0
1379
-65
1338
-108
1423
-70
0
1423
-70
1455
-110
1466
-80
0
1455
-110
1423
-70
1338
-108
0
1466
-80
1455
-110
1505
-93
0
1455
-190
1491
-178
1455
-110
9
1491
-178
1510
-154
1455
-110
9
1510
-154
1533
-138
1455
-110
9
1533
-138
1547
-119
1455
-110
9
1547
-119
1527
-99
1455
-110
0
1527
-99
1505
-93
1455
-110
0
1334
-190
1343
-198
1447
-198
0
1447
-198
1455
-190
1334
-190
0
807
610
1513
63
1546
613
0
1513
63
807
610
1287
64
0
807
610
1049
55
1287
64
0
1049
55
807
610
785
48
0
1507
-46
1563
-41
1513
63
0
1563
-41
1606
-56
1513
63
0
1606
-56
1639
-73
1513
63
0
1639
-73
1657
-99
1709
58
0
1657
-99
1679
-110
1709
58
0
1679
-110
1730
-108
1709
58
0
1709
58
1513
63
1639
-73
0
1730
-108
1782
-82
1709
58
0
1782
-82
1833
-97
1709
58
0
1833
-97
1874
-96
1709
58
0
1874
-96
1928
-84
1709
58
0
1928
-84
1958
-84
1944
60
0
1958
-84
1985
-56
1944
60
0
1985
-56
1986
-35
1944
60
0
1986
-35
2021
-35
2001
60
0
2021
-35
2026
-55
2062
60
0
2026
-55
2046
-83
2062
60
0
1709
58
1928
-84
1944
60
0
1944
60
1986
-35
2001
60
0
2001
60
2021
-35
2062
60
0
1546
613
2062
60
2115
613
0
2062
60
1546
613
2001
60
0
1546
613
1944
60
2001
60
0
1944
60
1546
613
1709
58
0
1546
613
1513
63
1709
58
0
1229
-100
1234
-2
1227
-2
3
1234
-2
1229
-100
1234
-98
3
1299
-72
1288
5
1283
4
3
1288
5
1299
-72
1305
-71
3
1296
-40
1355
-78
1360
-75
3
1360
-75
1295
-35
1296
-40
3
1355
-78
1365
7
1360
8
3
1365
7
1355
-78
1360
-75
3
1230
-26
1296
-60
1298
-56
3
1298
-56
1232
-23
1230
-26
3
1231
-72
1296
-40
1295
-35
3
1295
-35
1230
-67
1231
-72
3
1298
-56
1361
-14
1361
-9
3
1361
-14
1298
-56
1296
-60
3
1425
-76
1435
-8
1430
-7
3
1430
-7
1421
-74
1425
-76
3
1361
-14
1423
-66
1425
-62
3
1425
-62
1361
-9
1361
-14
3
1360
-53
1430
-29
1430
-24
3
1430
-29
1360
-53
1359
-58
3
1490
-93
1501
-40
1497
-39
3
1501
-40
1490
-93
1495
-93
3
1544
-118
1545
-41
1540
-41
3
1540
-41
1540
-118
1544
-118
3
1430
-29
1493
-84
1494
-80
3
1494
-80
1430
-24
1430
-29
3
1425
-62
1497
-56
1497
-52
3
1497
-56
1425
-62
1423
-66
3
1493
-84
1543
-62
1543
-59
3
1543
-59
1494
-80
1493
-84
3
1497
-56
1542
-107
1542
-102
3
1542
-102
1497
-52
1497
-56
3
2046
-83
2084
-86
2062
60
0
2084
-86
2119
-95
2062
60
0
2119
-95
2160
-91
2062
60
0
2160
-91
2195
-57
2062
60
0
2195
-57
2214
-25
2062
60
0
2214
-25
2256
-2
2062
60
7
2256
-2
2308
-2
2288
60
8
2288
60
2062
60
2256
-2
7
2308
-2
2362
-13
2288
60
7
2362
-13
2416
-4
2288
60
0
2115
613
2288
60
2363
610
0
2288
60
2115
613
2062
60
0
2416
-4
2472
-16
2288
60
0
2472
-16
2529
-30
2576
62
0
2576
62
2288
60
2472
-16
0
2529
-30
2576
-30
2576
62
0
2576
-30
2624
-47
2576
62
0
2624
-47
2670
-79
2576
62
0
2670
-79
2725
-82
2576
62
0
2725
-82
2754
-70
2739
63
0
2739
63
2576
62
2725
-82
0
2754
-70
2776
-41
2739
63
0
2776
-41
2792.5283203125
-26.601654052734
2739
63
0
2822
-4
2850
-6
2840
70
0
2850
-6
2871
-28
2909
66
0
2871
-28
2892
-58
2909
66
0
2892
-58
2916
-81
2909
66
0
2916
-81
2962
-86
2909
66
0
2909
66
2840
70
2850
-6
0
2840
70
2801
67
2822
-4
0
2801
67
2739
63
2792.5283203125
-26.601654052734
0
2363
610
2909
66
2911
609
0
2909
66
2363
610
2840
70
0
2363
610
2801
67
2840
70
0
2801
67
2363
610
2739
63
0
2363
610
2576
62
2739
63
0
2576
62
2363
610
2288
60
0
2792.5283203125
-26.601654052734
2804.421875
-9.8926086425781
2801
67
0
2801
67
2804.421875
-9.8926086425781
2822
-4
0
2962
-86
3008
-75
2909
66
7
3008
-75
3071
-99
2909
66
7
3071
-99
3106
-123
3162
66
7
3106
-123
3130
-149
3162
66
0
3130
-149
3163
-162
3162
66
7
3163
-162
3204
-162
3162
66
7
3162
66
2909
66
3071
-99
7
2911
609
3162
66
3173
611
0
3162
66
2911
609
2909
66
0
3204
-162
3255
-152
3162
66
7
3255
-152
3301
-126
3162
66
0
3301
-126
3325
-81
3162
66
0
3325
-81
3363
-29
3162
66
0
3363
-29
3424
-18
3162
66
0
3424
-18
3496
-31
3549
67
0
3549
67
3162
66
3424
-18
0
3173
611
3549
67
3576
611
0
3549
67
3173
611
3162
66
0
3496
-31
3539
-55
3549
67
0
3539
-55
3603
-60
3549
67
0
3603
-60
3663
-51
3549
67
0
3663
-51
3717
-72
3549
67
0
3717
-72
3752
-93
3803
59
0
3803
59
3549
67
3717
-72
0
3752
-93
3799
-103
3803
59
0
3799
-103
3840
-128
3803
59
0
3840
-128
3901
-128
3803
59
0
3576
611
3803
59
3815
610
0
3803
59
3576
611
3549
67
0
3365
-139
3472
-154
3384
-118
0
3384
-118
3472
-154
3400
-85
0
3400
-85
3472
-154
3440
-76
0
3440
-76
3472
-154
3503
-102
0
3503
-102
3472
-154
3542
-112
0
3542
-112
3472
-154
3613
-107
0
3365
-139
3363
-161
3472
-154
0
3363
-161
3399
-174
3472
-154
7
3399
-174
3569
-174
3472
-154
0
3569
-174
3599
-179
3602
-149
7
3599
-179
3631
-175
3602
-149
7
3631
-175
3664
-160
3602
-149
0
3664
-160
3665
-130
3602
-149
0
3665
-130
3613
-107
3602
-149
0
3602
-149
3472
-154
3569
-174
0
3602
-149
3613
-107
3471.9995117188
-154
0
3375
-134
3380
-21
3375
-22
3
3380
-21
3375
-134
3380
-130
3
3438
-79
3447
-81
3448
-17
3
3448
-17
3442
-17
3438
-79
3
3499
-103
3506
-105
3507
-32
3
3507
-32
3502
-31
3499
-103
3
3564
-113
3570
-113
3570
-47
3
3570
-47
3565
-47
3564
-113
3
3617
-114
3624
-115
3623
-53
3
3623
-53
3616
-53
3617
-114
3
3663
-134
3663
-46
3658
-46
3
3658
-46
3657
-134
3663
-134
3
3378
-34
3442
-74
3442
-70
3
3442
-70
3378
-29
3378
-34
3
3377
-78
3445
-32
3445
-28
3
3445
-32
3377
-78
3377
-82
3
3442
-70
3505
-44
3505
-40
3
3505
-44
3442
-70
3442
-74
3
3445
-32
3503
-93
3504
-89
3
3504
-89
3445
-28
3445
-32
3
3504
-89
3568
-65
3568
-62
3
3568
-65
3504
-89
3503
-93
3
3505
-44
3566
-106
3567
-102
3
3567
-102
3505
-40
3505
-44
3
3568
-65
3621
-107
3621
-103
3
3621
-103
3568
-62
3568
-65
3
3567
-102
3620
-65
3621.0034179688
-61.79899597168
3
3620
-65
3567
-102
3566
-106
3
3621
-103
3661
-61
3661
-57
3
3661
-61
3621
-103
3621
-107
3
3620
-65
3660
-124
3660
-119
3
3660
-119
3621.0034179688
-61.79899597168
3620
-65
3
3441
-220
3492
-220
3492
-211
0
3492
-211
3442
-209
3441
-220
0
3442
-209
3452
-211
3449
-199
0
3449
-199
3441
-199
3442
-209
0
3512
-219
3564
-220
3564
-209
0
3564
-209
3513
-210
3512
-219
0
3564
-209
3565
-200
3555
-200
0
3555
-200
3555
-211
3564
-209
0
4550.3994140625
-128.39633178711
4560.3994140625
-12.396331787109
4511.3994140625
-126.39633178711
0
4511.3994140625
-126.39633178711
4560.3994140625
-12.396331787109
4502.3994140625
-123.39633178711
0
4502.3994140625
-123.39633178711
4560.3994140625
-12.396331787109
4497.3994140625
-111.39631652832
0
4497.3994140625
-111.39631652832
4560.3994140625
-12.396331787109
4483.3994140625
-95.39631652832
0
4483.3994140625
-95.39631652832
4560.3994140625
-12.396331787109
4480.3994140625
-66.396392822266
0
4480.3994140625
-66.396392822266
4560.3994140625
-12.396331787109
4465.3994140625
-61.396408081055
0
4465.3994140625
-61.396408081055
4465.3994140625
-5.3963317871094
4449.3994140625
-61.396408081055
0
4449.3994140625
-61.396408081055
4465.3994140625
-5.3963317871094
4409.3994140625
-88.396331787109
0
4409.3994140625
-88.396331787109
4465.3994140625
-5.3963317871094
4387.3994140625
-88.396331787109
0
4387.3994140625
-88.396331787109
4465.3994140625
-5.3963317871094
4373.3994140625
-84.396362304688
0
4373.3994140625
-84.396362304688
4465.3994140625
-5.3963317871094
4348.3994140625
-69.396377563477
0
4348.3994140625
-69.396377563477
4296.3994140625
1.6036682128906
4312.3994140625
-69.396377563477
0
4312.3994140625
-69.396377563477
4296.3994140625
1.6036682128906
4287.3994140625
-58.396408081055
0
4287.3994140625
-58.396408081055
4296.3994140625
1.6036682128906
4279.3994140625
-31.396331787109
0
4279.3994140625
-31.396331787109
4296.3994140625
1.6036682128906
4262.3984375
-31.396331787109
0
4262.3984375
-31.396331787109
4222.3984375
2.6036682128906
4243.3984375
-31.396331787109
0
4243.3984375
-31.396331787109
4222.3984375
2.6036682128906
4234.3984375
-56.396392822266
0
4234.3984375
-56.396392822266
4222.3984375
2.6036682128906
4214.3984375
-67.396392822266
0
4214.3984375
-67.396392822266
4222.3984375
2.6036682128906
4176.3984375
-70.396377563477
0
4436.3994140625
-129.39633178711
4341.3994140625
-127.39633178711
4344.3994140625
-135.39633178711
0
4341.3994140625
-127.39633178711
4436.3994140625
-129.39633178711
4434.3994140625
-121.39631652832
0
4436.3994140625
-129.39633178711
4443.3994140625
-124.39633178711
4434.3994140625
-124.39633178711
0
4443.3994140625
-124.39633178711
4442.3994140625
-121.39631652832
4434.3994140625
-124.39633178711
0
4442.3994140625
-121.39631652832
4434.3994140625
-121.39631652832
4434.3994140625
-124.39633178711
0
4344.3994140625
-135.39633178711
4266.3984375
-118.39631652832
4263.3984375
-128.39633178711
0
4266.3984375
-118.39631652832
4344.3994140625
-135.39633178711
4341.3994140625
-127.39633178711
0
4263.3984375
-128.39633178711
4195.3984375
-129.39633178711
4198.3984375
-137.39633178711
0
4195.3984375
-129.39633178711
4263.3984375
-128.39633178711
4266.3984375
-118.39631652832
0
4176.3984375
-70.396377563477
4222.3984375
2.6036682128906
4145.3984375
-79.396392822266
0
4145.3984375
-79.396392822266
4127.3984375
5.6036682128906
4113.3984375
-79.396392822266
0
4113.3984375
-79.396392822266
4127.3984375
5.6036682128906
4080.3994140625
-87.396331787109
0
4080.3994140625
-87.396331787109
4127.3984375
5.6036682128906
4051.3994140625
-86.396331787109
0
4051.3994140625
-86.396331787109
4127.3984375
5.6036682128906
4030.3994140625
-73.396392822266
0
4030.3994140625
-73.396392822266
4005.3989257812
6.6036682128906
3995.3989257812
-75.396392822266
0
4198.3984375
-137.39633178711
4116.3984375
-123.39633178711
4116.3984375
-132.39633178711
0
4116.3984375
-123.39633178711
4198.3984375
-137.39633178711
4195.3984375
-129.39633178711
0
4116.3984375
-132.39633178711
4049.3994140625
-128.39633178711
4049.3994140625
-137.39633178711
0
4049.3994140625
-128.39633178711
4116.3984375
-132.39633178711
4116.3984375
-123.39633178711
0
4049.3994140625
-137.39633178711
4008.3989257812
-125.39633178711
4006.3989257812
-134.39633178711
0
4008.3989257812
-125.39633178711
4049.3994140625
-137.39633178711
4049.3994140625
-128.39633178711
0
4006.3989257812
-134.39633178711
4007.3989257812
-130.39633178711
3999.3989257812
-130.39633178711
0
3999.3989257812
-130.39633178711
4007.3989257812
-130.39633178711
3999.3989257812
-126.39633178711
0
3999.3989257812
-126.39633178711
4007.3989257812
-130.39633178711
4008.3989257812
-125.39633178711
0
4560.3994140625
-12.396331787109
4465.3994140625
-5.3963317871094
4465.3994140625
-61.396408081055
0
4465.3994140625
-5.3963317871094
4296.3994140625
1.6036682128906
4348.3994140625
-69.396377563477
0
4296.3994140625
1.6036682128906
4222.3984375
2.6036682128906
4262.3984375
-31.396331787109
0
4222.3984375
2.6036682128906
4127.3984375
5.6036682128906
4145.3984375
-79.396392822266
0
4127.3984375
5.6036682128906
4005.3989257812
6.6036682128906
4030.3994140625
-73.396392822266
0
3995.3989257812
-75.396392822266
3890.3994140625
8.6036682128906
3961.3989257812
-95.39631652832
0
3961.3989257812
-95.39631652832
3890.3994140625
8.6036682128906
3950.3989257812
-113.39631652832
0
3950.3989257812
-113.39631652832
3890.3994140625
8.6036682128906
3934.3994140625
-125.39633178711
0
3934.3994140625
-125.39633178711
3890.3994140625
8.6036682128906
3901
-128
0
3890.3994140625
8.6036682128906
3995.3989257812
-75.396392822266
4005.3989257812
6.6036682128906
0
4550.3994140625
-128.39633178711
4580.3994140625
-148.3963470459
4560.3994140625
-12.396331787109
0
4580.3994140625
-148.3963470459
4596.3994140625
-197.39637756348
4654.3994140625
-54.396392822266
0
4596.3994140625
-197.39637756348
4598.3994140625
-239.39637756348
4654.3994140625
-54.396392822266
0
4598.3994140625
-239.39637756348
4592.3994140625
-303.39636230469
4676.3994140625
-227.39633178711
0
4592.3994140625
-303.39636230469
4601.3994140625
-348.39639282227
4676.3994140625
-227.39633178711
0
4601.3994140625
-348.39639282227
4603.3994140625
-405.39642333984
4676.3994140625
-227.39633178711
0
4603.3994140625
-405.39642333984
4614.3994140625
-461.39636230469
4711.3994140625
-451.39639282227
0
4614.3994140625
-461.39636230469
4604.3994140625
-514.39630126953
4711.3994140625
-451.39639282227
5
4604.3994140625
-514.39630126953
4616.3994140625
-542.39630126953
4711.3994140625
-451.39639282227
5
4616.3994140625
-542.39630126953
4657.3994140625
-556.39630126953
4711.3994140625
-451.39639282227
5
4657.3994140625
-556.39630126953
4715.3994140625
-556.39630126953
4711.3994140625
-451.39639282227
5
4715.3994140625
-556.39630126953
4785.3994140625
-572.39624023438
4711.3994140625
-451.39639282227
5
4785.3994140625
-572.39624023438
4846.3994140625
-570.39624023438
4711.3994140625
-451.39639282227
5
4846.3994140625
-570.39624023438
4891.3994140625
-524.39636230469
4711.3994140625
-451.39639282227
5
4891.3994140625
-524.39636230469
4880.3994140625
-433.39636230469
4711.3994140625
-451.39639282227
5
4880.3994140625
-433.39636230469
4831.3994140625
-356.39639282227
4711.3994140625
-451.39639282227
0
4831.3994140625
-356.39639282227
4827.3994140625
-262.39636230469
4676.3994140625
-227.39633178711
0
4827.3994140625
-262.39636230469
4840.3994140625
-169.39633178711
4676.3994140625
-227.39633178711
0
4840.3994140625
-169.39633178711
4824.3994140625
-81.396377563477
4676.3994140625
-227.39633178711
0
4824.3994140625
-81.396377563477
4821.3994140625
-5.3963317871094
4654.3994140625
-54.396392822266
0
4654.3994140625
-54.396392822266
4676.3994140625
-227.39633178711
4824.3994140625
-81.396377563477
0
4654.3994140625
-54.396392822266
4598.3994140625
-239.39637756348
4676.3994140625
-227.39633178711
0
4676.3994140625
-227.39633178711
4603.3994140625
-405.39642333984
4711.3994140625
-451.39639282227
0
4711.3994140625
-451.39639282227
4831.3994140625
-356.39639282227
4676.3994140625
-227.39633178711
0
4654.3994140625
-54.396392822266
4560.3994140625
-12.396331787109
4580.3994140625
-148.3963470459
0
4821.3994140625
-5.3963317871094
4794.3994140625
487.60394287109
4654.3994140625
-54.396392822266
0
4794.3994140625
487.60394287109
4607.3994140625
588.60375976562
4560.3994140625
-12.396331787109
0
4607.3994140625
588.60375976562
4027.3994140625
597.60375976562
3890.3994140625
8.6036682128906
0
4560.3994140625
-12.396331787109
4654.3994140625
-54.396392822266
4794.3994140625
487.60394287109
0
4607.3994140625
588.60375976562
4465.3994140625
-5.3963317871094
4560.3994140625
-12.396331787109
0
4465.3994140625
-5.3963317871094
4607.3994140625
588.60375976562
4296.3994140625
1.6036682128906
0
4607.3994140625
588.60375976562
4222.3984375
2.6036682128906
4296.3994140625
1.6036682128906
0
4222.3984375
2.6036682128906
4607.3994140625
588.60375976562
4127.3984375
5.6036682128906
0
4607.3994140625
588.60375976562
3890.3994140625
8.6036682128906
4005.3989257812
6.6036682128906
0
4005.3989257812
6.6036682128906
4127.3984375
5.6036682128906
4607.3994140625
588.60375976562
0
3803
59
3901
-128
3890.3994140625
8.6036682128906
0
3803
59
3890.3994140625
8.6036682128906
4027.3994140625
597.60375976562
0
4027.3994140625
597.60375976562
3815
610
3803
59
0
199
25
0

0

0

0

0

0

0

0

0

0

0

0

0

0

0

0

0

0

0

0

0

0

3
72
73
74
2
73
74
0

0

0

0

0

0

0

0

0

0

0

0

0

0

0

0

0

0

0

0

0

0

0

0

0

0

0

0

0

0

0

0

0

0

0

0

0

0

0

0

0

0

0

0

0

0

0

0

0

12
65
66
67
68
69
70
71
72
73
74
81
82
10
62
63
64
65
73
74
75
76
81
82
13
62
63
64
75
76
77
78
79
80
81
82
289
292
4
78
289
290
292
3
289
290
292
3
289
290
292
1
290
0

0

0

0

0

0

0

0

0

0

0

0

0

0

0

0

0

0

0

0

0

0

0

0

0

0

0

0

0

0

0

0

0

0

0

0

0

0

0

0

0

0

0

0

7
65
66
67
68
69
81
82
8
62
63
64
65
75
76
81
82
24
6
7
8
9
10
11
49
59
60
61
62
63
64
75
76
77
78
79
80
81
82
90
289
292
20
6
7
8
9
10
11
49
59
78
90
289
290
291
292
293
294
295
296
297
298
10
289
290
291
292
293
294
295
296
297
298
10
289
290
291
292
293
294
295
296
297
298
8
290
291
293
294
295
296
297
298
0

0

0

0

0

0

0

0

0

0

0

0

0

0

0

0

0

0

0

0

0

0

0

0

0

0

0

0

0

0

0

0

0

0

0

0

0

0

0

0

0

0

0

0

0

0

18
11
12
13
14
15
16
17
18
19
25
26
27
28
29
30
31
49
50
20
11
12
13
14
15
16
17
18
19
20
49
50
51
291
293
294
295
296
297
298
7
291
293
294
295
296
297
298
7
291
293
294
295
296
297
298
7
291
293
294
295
296
297
298
0

0

0

0

0

0

0

0

0

0

0

0

0

0

0

0

0

0

0

0

0

0

0

0

0

0

0

0

0

0

0

0

0

0

0

0

0

0

0

0

0

0

0

0

0

0

19
19
22
23
24
30
31
32
33
34
35
36
37
38
40
41
42
43
52
53
19
19
20
21
22
23
24
34
35
36
37
38
51
52
53
291
295
296
297
298
5
291
295
296
297
298
3
295
296
298
5
291
295
296
297
298
0

0

0

0

0

0

0

0

0

0

0

0

0

0

0

0

0

0

0

0

0

0

0

0

0

0

0

0

0

0

0

0

0

0

0

0

0

0

0

0

0

0

0

0

0

0

22
37
38
39
42
43
44
45
46
47
48
53
54
55
56
57
58
83
84
85
86
87
89
20
37
38
39
53
54
55
56
57
58
83
84
85
86
87
89
291
297
298
299
300
5
291
297
298
299
300
5
291
297
298
299
300
5
291
297
298
299
300
0

0

0

0

0

0

0

0

0

0

0

0

0

0

0

0

0

0

0

0

0

0

0

0

0

0

0

0

0

0

0

0

0

0

0

0

0

0

0

0

0

0

0

0

0

0

12
83
84
85
86
87
88
89
99
100
101
102
110
9
83
84
85
86
87
88
89
299
300
2
299
300
2
299
300
2
299
300
0

0

0

0

0

0

0

0

0

0

0

0

0

0

0

0

0

0

0

0

0

0

0

0

0

0

0

0

0

0

0

0

0

0

0

0

0

0

0

0

0

0

0

0

0

4
179
180
185
186
24
88
89
91
92
93
94
95
96
98
99
100
101
102
103
104
105
106
107
108
109
110
111
112
113
12
88
89
91
92
93
94
95
96
98
299
300
305
3
299
300
305
3
299
300
305
3
299
300
305
0

0

0

0

0

0

0

0

0

0

0

0

0

0

0

0

0

0

0

0

0

0

0

0

0

0

0

0

0

0

0

0

0

0

0

0

0

0

0

0

0

0

0

0

0

0

6
96
97
98
114
115
116
11
96
97
98
114
115
116
117
118
299
304
305
3
299
304
305
3
299
304
305
3
299
304
305
0

0

0

0

0

0

0

0

0

0

0

0

0

0

0

0

0

0

0

0

0

0

0

0

0

0

0

0

0

0

0

0

0

0

0

0

0

0

0

0

0

0

0

0

0

0

10
119
120
121
122
123
124
125
127
173
174
16
117
118
119
120
121
122
123
124
125
127
299
301
302
303
304
305
6
299
301
302
303
304
305
6
299
301
302
303
304
305
6
299
301
302
303
304
305
0

0

0

0

0

0

0

0

0

0

0

0

0

0

0

0

0

0

0

0

0

0

0

0

0

0

0

0

0

0

0

0

0

0

0

0

0

0

0

0

0

0

0

0

0

0

10
120
122
123
124
125
126
127
128
173
174
14
120
122
123
124
125
126
127
128
129
130
132
301
302
306
3
301
302
306
3
301
302
306
3
301
302
306
0

0

0

0

0

0

0

0

0

0

0

0

0

0

0

0

0

0

0

0

0

0

0

0

0

0

0

0

0

0

0

0

0

0

0

0

0

0

0

0

0

0

0

0

0

0

6
128
153
154
155
156
157
16
128
129
130
131
132
153
154
155
156
157
158
159
164
301
306
309
3
301
306
309
3
301
306
309
3
301
306
309
0

0

0

0

0

0

0

0

0

0

0

0

0

0

0

0

0

0

0

0

0

0

0

0

0

0

0

0

0

0

0

0

0

0

0

0

0

0

0

0

0

0

0

0

0

0

3
155
156
157
16
155
156
157
158
159
160
161
162
164
165
301
306
307
308
309
310
6
301
306
307
308
309
310
6
301
306
307
308
309
310
6
301
306
307
308
309
310
0

0

0

0

0

0

0

0

0

0

0

0

0

0

0

0

0

0

0

0

0

0

0

0

0

0

0

0

0

0

0

0

0

0

0

0

0

0

0

0

0

0

0

0

0

0

2
255
256
10
161
162
163
165
166
255
256
307
308
310
3
307
308
310
3
307
308
310
3
307
308
310
0

0

0

0

0

0

0

0

0

0

0

0

0

0

0

0

0

0

0

0

0

0

0

0

0

0

0

0

0

0

0

0

0

0

0

0

0

0

0

0

0

0

0

0

0

0

6
167
168
169
170
255
256
12
163
165
166
167
168
169
170
255
256
307
308
310
3
307
308
310
2
308
310
3
307
308
310
0

0

0

0

0

0

0

0

0

0

0

0

0

0

0

0

0

0

0

0

0

0

0

0

0

0

0

0

0

0

0

0

0

0

0

0

0

0

0

0

0

0

0

0

0

0

7
169
170
171
172
187
188
190
10
169
170
171
172
187
188
190
307
308
311
3
307
308
311
3
307
308
311
3
307
308
311
0

0

0

0

0

0

0

0

0

0

0

0

0

0

0

0

0

0

0

0

0

0

0

0

0

0

0

0

0

0

0

0

0

0

0

0

0

0

0

0

0

0

0

0

0

0

5
187
188
189
190
191
12
187
188
189
190
191
307
311
312
313
314
315
316
7
307
311
312
313
314
315
316
7
307
311
312
313
314
315
316
7
307
311
312
313
314
315
316
0

0

0

0

0

0

0

0

0

0

0

0

0

0

0

0

0

0

0

0

0

0

0

0

0

0

0

0

0

0

0

0

0

0

0

0

0

0

0

0

0

0

0

0

0

0

11
189
190
191
192
193
194
195
207
213
214
249
15
189
190
191
192
193
194
195
196
206
311
312
313
314
315
316
3
311
312
313
6
311
312
313
314
315
316
6
311
312
313
314
315
316
0

0

0

0

0

0

0

0

0

0

0

0

0

0

0

0

0

0

0

0

0

0

0

0

0

0

0

0

0

0

0

0

0

0

0

0

0

0

0

0

0

0

0

0

0

0

25
195
207
208
209
210
211
212
213
214
215
216
217
218
243
244
245
246
247
248
249
250
251
252
253
254
13
195
196
197
198
199
200
205
206
312
313
314
315
316
3
312
313
316
5
312
313
314
315
316
5
312
313
314
315
316
0

0

0

0

0

0

0

0

0

0

0

0

0

0

0

0

0

0

0

0

0

0

0

0

0

0

0

0

0

0

0

0

0

0

0

0

0

0

0

0

0

0

0

0

0

0

13
202
203
204
211
212
215
216
217
218
251
252
257
258
15
200
201
202
203
204
205
257
258
259
260
262
313
314
315
316
4
313
314
315
316
4
313
314
315
316
4
313
314
315
316
0

0

0

0

0

0

0

0

0

0

0

0

0

0

0

0

0

0

0

0

0

0

0

0

0

0

0

0

0

0

0

0

0

0

0

0

0

0

0

0

0

0

0

0

0

0

3
204
257
258
12
204
257
258
259
260
261
262
263
265
314
315
316
3
314
315
316
2
315
316
3
314
315
316
0

0

0

0

0

0

0

0

0

0

0

0

0

0

0

0

0

0

0

0

0

0

0

0

0

0

0

0

0

0

0

0

0

0

0

0

0

0

0

0

0

0

0

0

0

0

7
268
269
271
281
282
287
288
12
261
263
264
265
266
267
268
269
271
314
315
318
3
314
315
318
3
314
315
318
3
314
315
318
0

0

0

0

0

0

0

0

0

0

0

0

0

0

0

0

0

0

0

0

0

0

0

0

0

0

0

0

0

0

0

0

0

0

0

0

0

0

0

0

0

0

0

0

0

0

4
268
269
270
271
10
267
268
269
270
271
314
317
318
350
351
5
314
317
318
350
351
5
314
317
318
350
351
5
314
317
318
350
351
0

0

0

0

0

0

0

0

0

0

0

0

0

0

0

0

0

0

0

0

0

0

0

0

0

0

0

0

0

0

0

0

0

0

0

0

0

0

0

0

0

0

0

0

0

0

2
270
271
11
270
271
272
273
274
275
276
317
318
350
351
4
317
318
350
351
4
317
318
350
351
4
317
318
350
351
0

0

0

0

0

0

0

0

0

0

0

0

0

0

0

0

0

0

0

0

0

0

0

0

0

0

0

0

0

0

0

0

0

0

0

0

0

0

0

0

0

0

0

0

0

0

4
364
365
366
367
20
275
276
317
319
320
321
322
323
324
325
326
327
328
329
331
348
349
350
351
355
4
317
350
351
355
4
317
350
351
355
4
317
350
351
355
0

0

0

0

0

0

0

0

0

0

0

0

0

0

0

0

0

0

0

0

0

0

0

0

0

0

0

0

0

0

0

0

0

0

0

0

0

0

0

0

0

0

0

0

0

0

0

17
1
2
3
329
330
331
332
333
334
335
336
348
349
350
353
354
355
4
350
353
354
355
4
350
353
354
355
4
350
353
354
355
0

0

0

0

0

0

0

0

0

0

0

0

0

0

0

0

0

0

0

0

0

0

0

0

0

0

0

0

0

0

0

0

0

0

0

0

0

0

0

0

0

0

0

0

0

0

4
397
398
399
400
22
2
334
336
337
338
339
340
341
342
343
344
345
346
347
348
349
350
352
353
354
355
368
4
352
353
354
355
5
350
352
353
354
355
5
350
352
353
354
355
0

0

0

0

0

0

0

0

0

0

0

0

0

0

0

0

0

0

0

0

0

0

0

0

0

0

0

0

0

0

0

0

0

0

0

0

0

0

0

0

0

0

0

0

0

0

4
397
398
399
400
24
341
342
343
344
345
346
347
350
352
353
354
355
368
369
370
371
372
373
374
375
377
401
402
403
8
350
352
353
354
355
401
402
403
8
350
352
353
354
355
401
402
403
8
350
352
353
354
355
401
402
403
0

0

0

0

0

0

0

0

0

0

0

0

0

0

0

0

0

0

0

0

0

0

0

0

0

0

0

0

0

0

0

0

0

0

0

0

0

0

0

0

0

0

0

0

0

0

0

12
375
376
377
378
379
380
381
382
384
401
402
403
3
401
402
403
3
401
402
403
3
401
402
403
0

0

0

0

0

0

0

0

0

0

0

0

0

0

0

0

0

0

0

0

0

0

0

0

0

0

0

0

0

0

0

0

0

0

0

0

0

0

0

0

0

0

0

0

0

0

0

14
382
383
384
385
386
387
388
401
402
408
447
448
449
450
6
401
402
447
448
449
450
6
401
402
447
448
449
450
6
401
402
447
448
449
450
0

0

0

0

0

0

0

0

0

0

0

0

0

0

0

0

0

0

0

0

0

0

0

0

0

0

0

0

0

0

0

0

0

0

0

0

0

0

0

0

0

0

0

0

0

0

4
406
407
409
410
16
388
404
405
406
407
408
409
410
411
412
413
415
447
448
449
450
3
448
449
450
4
447
448
449
450
4
447
448
449
450
0

0

0

0

0

0

0

0

0

0

0

0

0

0

0

0

0

0

0

0

0

0

0

0

0

0

0

0

0

0

0

0

0

0

0

0

0

0

0

0

0

0

0

0

0

0

8
409
410
424
425
426
430
431
432
17
409
410
411
412
413
414
415
416
417
418
419
421
431
432
447
448
449
3
447
448
449
3
447
448
449
3
447
448
449
0

0

0

0

0

0

0

0

0

0

0

0

0

0

0

0

0

0

0

0

0

0

0

0

0

0

0

0

0

0

0

0

0

0

0

0

0

0

0

0

0

0

0

0

0

0

23
424
425
426
427
428
429
430
431
432
433
434
435
436
437
438
439
440
441
442
443
444
445
446
20
416
417
418
419
420
421
422
423
431
432
433
434
435
436
437
438
443
444
447
448
2
447
448
0

2
447
448
0

0

0

0

0

0

0

0

0

0

0

0

0

0

0

0

0

0

0

0

0

0

0

0

0

0

0

0

0

0

0

0

0

0

0

0

0

0

0

0

0

0

0

0

0

0

9
438
440
441
442
443
444
454
455
456
21
420
421
422
423
438
443
444
447
448
451
452
453
454
455
456
457
471
472
473
474
475
7
447
448
471
472
473
474
475
7
447
448
471
472
473
474
475
7
447
448
471
472
473
474
475
0

0

0

0

0

0

0

0

0

0

0

0

0

0

0

0

0

0

0

0

0

0

0

0

0

0

0

0

0

0

0

0

0

0

0

0

0

0

0

0

0

0

0

0

0

0

4
454
455
456
458
14
454
455
456
457
458
459
460
461
468
471
472
473
474
475
5
471
472
473
474
475
5
471
472
473
474
475
5
471
472
473
474
475
0

0

0

0

0

0

0

0

0

0

0

0

0

0

0

0

0

0

0

0

0

0

0

0

0

0

0

0

0

0

0

0

0

0

0

0

0

0

0

0

0

0

0

0

0

0

0

22
461
462
463
464
465
466
467
468
469
470
471
472
473
474
508
509
510
511
512
513
515
519
5
471
472
473
474
519
5
471
472
473
474
519
5
471
472
473
474
519
0

0

0

0

0

0

0

0

0

0

0

0

0

0

0

0

0

0

0

0

0

0

0

0

0

0

0

0

0

0

0

0

0

0

0

0

0

0

0

0

0

0

0

0

0

0

0

15
471
509
510
511
512
513
514
515
516
517
518
519
520
522
544
4
471
518
519
544
4
471
518
519
544
4
471
518
519
544
0

0

0

0

0

0

0

0

0

0

0

0

0

0

0

0

0

0

0

0

0

0

0

0

0

0

0

0

0

0

0

0

0

0

0

0

0

0

0

0

0

0

0

0

0

0

0

13
514
516
517
518
520
521
522
539
540
541
542
543
544
7
518
539
540
541
542
543
544
7
518
539
540
541
542
543
544
7
518
539
540
541
542
543
544
0

0

0

0

0

0

0

0

0

0

0

0

0

0

0

0

0

0

0

0

0

0

0

0

0

0

0

0

0

0

0

0

0

0

0

0

0

0

0

0

0

0

0

0

0

0

0

13
521
522
523
524
525
526
528
539
540
541
542
543
544
6
539
540
541
542
543
544
6
539
540
541
542
543
544
6
539
540
541
542
543
544
0

0

0

0

0

0

0

0

0

0

0

0

0

0

0

0

0

0

0

0

0

0

0

0

0

0

0

0

0

0

0

0

0

0

0

0

0

0

0

0

0

0

0

0

0

0

0

18
526
527
528
529
530
531
532
533
536
537
538
539
540
541
542
543
545
546
5
539
540
541
542
543
4
540
541
542
543
5
539
540
541
542
543
0

0

0

0

0

0

0

0

0

0

0

0

0

0

0

0

0

0

0

0

0

0

0

0

0

0

0

0

0

0

0

0

0

0

0

0

0

0

0

0

0

0

0

0

0

0

3
548
549
553
13
532
533
534
535
536
539
540
547
548
549
553
554
555
4
539
540
554
555
4
539
540
554
555
4
539
540
554
555
0

0

0

0

0

0

0

0

0

0

0

0

0

0

0

0

0

0

0

0

0

0

0

0

0

0

0

0

0

0

0

0

0

0

0

0

0

0

0

0

0

0

0

0

0

0

8
549
550
551
552
553
556
557
558
15
549
550
551
552
553
554
555
556
557
558
559
560
562
563
564
4
554
555
563
564
4
554
555
563
564
4
554
555
563
564
0

0

0

0

0

0

0

0

0

0

0

0

0

0

0

0

0

0

0

0

0

0

0

0

0

0

0

0

0

0

0

0

0

0

0

0

0

0

0

0

0

0

0

0

0

0

17
557
558
576
577
578
579
580
581
582
583
584
590
591
624
625
626
627
11
557
558
559
560
561
562
563
564
577
578
579
2
563
564
2
563
564
2
563
564
0

0

0

0

0

0

0

0

0

0

0

0

0

0

0

0

0

0

0

0

0

0

0

0

0

0

0

0

0

0

0

0

0

0

0

0

0

0

0

0

0

0

0

0

0

0

17
579
580
581
584
585
586
587
588
589
590
591
624
625
628
629
630
631
12
561
562
563
564
565
566
567
568
570
574
575
579
4
563
564
574
575
4
563
564
574
575
4
563
564
574
575
0

0

0

0

0

0

0

0

0

0

0

0

0

0

0

0

0

0

0

0

0

0

0

0

0

0

0

0

0

0

0

0

0

0

0

0

0

0

0

0

0

0

0

0

0

0

4
571
572
573
720
11
568
569
570
571
572
573
574
575
720
721
722
4
574
575
721
722
4
574
575
721
722
4
574
575
721
722
0

0

0

0

0

0

0

0

0

0

0

0

0

0

0

0

0

0

0

0

0

0

0

0

0

0

0

0

0

0

0

0

0

0

0

0

0

0

0

0

0

0

0

0

0

0

12
573
668
669
670
671
672
673
674
681
682
683
720
16
573
663
664
665
679
680
681
682
683
684
712
718
719
720
721
722
5
712
718
719
721
722
5
712
718
719
721
722
5
712
718
719
721
722
0

0

0

0

0

0

0

0

0

0

0

0

0

0

0

0

0

0

0

0

0

0

0

0

0

0

0

0

0

0

0

0

0

0

0

0

0

0

0

0

0

0

0

0

0

0

8
656
657
658
659
666
667
668
669
18
646
647
648
649
650
660
661
662
663
664
677
678
679
712
716
717
718
719
5
712
716
717
718
719
5
712
716
717
718
719
5
712
716
717
718
719
0

0

0

0

0

0

0

0

0

0

0

0

0

0

0

0

0

0

0

0

0

0

0

0

0

0

0

0

0

0

0

0

0

0

0

0

0

0

0

0

0

0

0

0

0

0

7
651
652
653
654
655
656
657
20
637
638
639
640
641
642
643
644
645
646
675
676
677
712
714
715
716
717
718
719
6
714
715
716
717
718
719
7
712
714
715
716
717
718
719
7
712
714
715
716
717
718
719
0

0

0

0

0

0

0

0

0

0

0

0

0

0

0

0

0

0

0

0

0

0

0

0

0

0

0

0

0

0

0

0

0

0

0

0

0

0

0

0

0

0

0

0

4
692
693
694
695
9
688
689
690
691
692
693
694
695
707
14
632
633
634
635
685
686
687
688
689
690
705
706
707
709
24
632
633
634
635
636
637
675
685
686
687
704
705
706
709
710
711
712
713
714
715
716
717
718
719
10
710
711
712
713
714
715
716
717
718
719
10
710
711
712
713
714
715
716
717
718
719
8
711
712
714
715
716
717
718
719
0

0

0

0

0

0

0

0

0

0

0

0

0

0

0

0

0

0

0

0

0

0

0

0

0

0

0

0

0

0

0

0

0

0

0

0

0

0

0

0

0

0

0

0

8
692
693
694
695
696
697
698
699
13
691
692
693
694
695
696
697
698
699
700
701
707
708
6
701
702
703
705
707
708
6
703
704
705
710
711
713
3
710
711
713
3
710
711
713
1
711
0

0

0

0

0

0

0

0

0

0

0

0

0

0

0

0

0

0

0

0

0

0

0

0

0

0

0

0

0

0

0

0

0

0

0

0

0

0

0

0

0

0

0

0

2
698
699
3
698
699
700
0

0

0

0

0

0

0

0

0

0

0

0

0

0

0

0

0

0

0

0

0

0

0

0

0

0

0

486
255
34
64
24
44
-107
0.008546800352633
1
255
1
40
10
-4502
-175
0.12038282305002
1
255
1
40
10
-4409
-141
1.5565116405487
2
255
1
40
10
-4406
-145
6.2266421318054
2
255
1
40
10
-4421
-134
0.80126982927322
2
255
1
40
10
-4407
-167
0.75151282548904
2
255
1
40
10
-4406
-164
2.5015046596527
2
255
1
40
10
-4280
-86
-0
2
255
1
40
10
-4287
-112
5.0108880996704
2
255
1
40
10
-4245
-84
1.1571071147919
2
255
1
40
10
-4320
-121
1.4711276292801
2
255
1
40
10
-4345
-124
0.10308160632849
2
255
1
40
10
-4317
-128
5.8288831710815
2
255
1
40
10
-4312
-164
0.63754880428314
2
255
1
40
10
-4313
-160
2.2774105072021
2
255
1
40
10
-4177
-122
1.6794576644897
2
255
1
40
10
-4174
-126
0.34653887152672
2
255
1
40
10
-4203
-124
0.12283524125814
2
255
1
40
10
-4177
-164
0.75683450698853
2
255
1
40
10
-4178
-160
2.4292352199554
2
255
1
40
10
-4005
-187
6.1180367469788
1
255
1
40
10
-4061
-139
1.4852910041809
2
255
1
40
10
-4055
-170
0.63502675294876
2
255
1
40
10
-4054
-166
2.5075700283051
2
255
1
40
10
-4079
-142
-0
2
255
1
40
10
-4057
-142
5.7920217514038
2
255
2
92
92
-4497
-174
-0
0
255
2
92
92
-4449
-182
-0
0
255
2
92
92
-4201
-190
-0
0
255
2
92
92
-4177
-182
-0
0
255
2
92
92
-3969.2685546875
-175.07373046875
-0
0
255
3
64
64
-4514.4345703125
-170.43740844727
6.2828025817871
0
255
2
92
92
-3713
-206
-0
0
255
3
64
64
-3713
-166
-0
0
255
4
64
32
-3120
-149
6.2686939239502
2
255
5
10
12
-3041
-131
-0
2
255
5
10
12
-3134
-118
0.17324566841125
2
255
6
60
10
-3130
-118
0.0054347291588783
2
255
6
60
10
-3060
-117
0.94677329063416
2
255
6
60
10
-3053
-128
6.2593803405762
2
255
6
60
10
-3058
-102
0.89605540037155
2
255
6
60
10
-3125
-104
0.041072778403759
2
255
5
10
12
-3130
-107
0.11379200965166
2
255
7
14
12
-3067
-160
0.079829983413219
2
255
7
14
12
-3059
-164
6.101016998291
2
255
8
15
11
-3120
-159
6.2619118690491
2
255
8
15
11
-3112
-155
6.1725282669067
2
255
9
32
32
-3119
-146
6.2743363380432
1
255
10
35
14
-3079
-117
0.67328745126724
0
255
7
14
12
-3125.1376953125
-123.26782226562
0.079829983413219
2
255
7
14
12
-3117.1376953125
-127.26782226562
6.101016998291
2
255
11
80
82
-3305
-194
6.2522673606873
2
255
12
32
16
-3346
-112
5.7792139053345
2
255
13
25
25
-3096
-149
-0
2
255
13
25
25
-3638
-338
6.2554149627686
2
255
14
100
10
-3030
-120
6.2546219825745
1
255
14
100
10
-3704
-233
0.1005769148469
1
255
14
100
10
-4433
-192
0.040793683379889
1
255
14
100
10
-4201
-199
6.2239327430725
1
255
14
100
10
-3860
-208
0.081452041864395
1
255
14
100
10
-3820
-213
6.0587697029114
1
255
14
100
10
-3256
-105
0.20590081810951
1
255
14
100
10
-3196
-122
6.2736620903015
1
255
15
48
9
-3657
-347
6.2700281143188
1
255
8
15
11
-3612
-348
6.2495846748352
2
255
8
15
11
-3656
-349
6.2682614326477
2
255
16
46
46
-3655
-372
0.0046511292457581
2
255
17
64
32
-3645
-274
0.055498506873846
0
255
18
33
23
-2859
-77
0.28674539923668
2
255
19
16
16
-2824
-81
6.2180604934692
0
255
19
16
16
-2813
-75
0.41012734174728
0
255
12
32
16
-2775
-75
0.58800262212753
2
255
12
32
16
-2568
-89
4.5212044715881
2
255
12
32
16
-2576
-64
5.4444031715393
2
255
12
32
16
-2575
-73
4.865038394928
2
255
12
32
16
-2568
-45
6.0899739265442
2
255
20
128
64
-2528
-87.759902954102
0.084454715251923
1
255
21
16
16
-2514
-54
0.065125159919262
0
255
21
16
16
-2496
-56
0.2234766036272
0
255
21
16
16
-2508
-68
0.086738340556622
0
255
22
16
12
-2448
-63
-0
0
255
22
16
12
-2429
-62
-0
0
255
23
16
22
-2471
-66
0.1526493281126
0
255
6
60
10
-2700
-118
0.47626522183418
2
255
6
60
10
-2654
-144
6.1925253868103
2
255
6
60
10
-2601
-140
5.4548687934875
2
255
5
10
12
-2703
-124
0.38050636649132
2
255
5
10
12
-2562
-107
5.4071273803711
2
255
24
25
11
-2641
-145
6.2026147842407
0
255
11
80
82
-2661
-223
0.027020448818803
0
255
14
100
10
-2205
-158
0.24497866630554
0
255
14
100
10
-2139
-175
6.0687899589539
0
255
6
60
10
-1990
-164
6.0840263366699
2
255
6
60
10
-1931
-152
6.1646957397461
2
255
6
60
10
-1893
-150
5.5485911369324
2
255
6
60
10
-1862
-115
0.056543435901403
2
255
11
80
82
-2162
-274
-0
2
255
11
80
82
-4572
-286
6.1542749404907
2
255
2
92
92
-1500.7351074219
-166
-0
0
255
3
64
64
-1501.7802734375
-102
-0
0
255
9
32
32
-1389
-219
0.13613896071911
1
255
25
50
6
-1389
-185
1.60586977005
1
255
25
50
6
-1319
-180
1.7315591573715
1
255
8
15
11
-1324
-193
6.2056713104248
2
255
8
15
11
-1394
-199
6.2377619743347
2
255
14
100
10
-1693
-160
0.22990442812443
1
255
14
100
10
-1648
-171
6.1254167556763
1
255
14
100
10
-1507
-195
0.031239833682775
1
255
14
100
10
-1298
-188
0.12697279453278
1
255
14
100
10
-1316
-191
6.2568759918213
1
255
11
80
82
-1489
-281
0.071307465434074
1
255
26
12
12
-1992
-165
-0
2
255
26
12
12
-1895
-151
6.0225830078125
2
255
26
12
12
-1865
-122
6.1445455551147
2
255
26
12
12
-1809
-117
0.10673566907644
2
255
6
60
10
-1316
-191
0.082518957555294
2
255
6
60
10
-1450
-198
0.01190419960767
2
255
26
12
12
-1454
-199
0.1206236705184
2
255
26
12
12
-1264
-197
-0
2
255
13
25
25
-1366.9375
-226.3125
0.093841210007668
2
255
27
64
128
-1258.3234863281
-191.38418579102
0.099668651819229
2
255
13
25
25
-1354.625
-227.4375
0.10134650021791
2
255
28
24
24
-2289
-111
0.28123220801353
2
255
18
33
23
-2288
-98
0.36172923445702
2
255
28
24
24
-2302
-99
0.13944005966187
0
255
28
24
24
-2270
-110
6.2447428703308
0
255
26
12
12
-2319
-91
-0
0
255
26
12
12
-2311
-91
-0
0
255
26
12
12
-2316
-102
0.049958396703005
0
255
29
50
11
-3479
-188
0.054001498967409
1
255
29
50
11
-3422
-192
5.7771105766296
1
255
28
24
24
-3475
-204
-0
0
255
28
24
24
-3452
-204
-0
0
255
26
12
12
-3464
-216
-0
0
255
26
12
12
-3452
-216
-0
0
255
26
12
12
-3458
-228
-0
0
255
6
60
10
-1182
-118
0.44926011562347
2
255
6
60
10
-1148
-138
0.0081299021840096
2
255
6
60
10
-1089
-139
5.879650592804
2
255
6
60
10
-1165
-109
0.34738597273827
2
255
6
60
10
-1128
-124
6.1870965957642
2
255
6
60
10
-1086
-119
5.6895756721497
2
255
26
12
12
-1170
-111
0.54678881168365
2
255
26
12
12
-1187
-122
0.66320300102234
2
255
26
12
12
-1149
-142
0.15865525603294
2
255
26
12
12
-1128
-128
6.1660766601562
2
255
26
12
12
-1089
-143
6.0911374092102
2
255
26
12
12
-1044
-95
5.8925786018372
2
255
26
12
12
-1031
-120
6.0152750015259
2
255
12
32
16
-818
-45
0.05992815643549
2
255
14
100
10
-729
-90
0.09671226888895
1
255
14
100
10
-680
-92
0.57266640663147
1
255
14
100
10
-642
-118
0.10566557943821
1
255
14
100
10
-525
-108
6.1449422836304
1
255
14
100
10
-433
-102
6.0915369987488
1
255
12
32
16
-974
-61
5.8034100532532
2
255
12
32
16
-993
-75
5.6818857192993
2
255
13
25
25
-875.7119140625
-151.65447998047
6.2554149627686
2
255
15
48
9
-894.7119140625
-160.65451049805
6.2700281143188
1
255
8
15
11
-849.7119140625
-161.65451049805
6.2495846748352
2
255
8
15
11
-893.7119140625
-162.65452575684
6.2682614326477
2
255
16
46
46
-892.7119140625
-185.65466308594
0.0046511292457581
2
255
17
64
32
-882.7119140625
-87.65446472168
0.055498506873846
0
255
11
80
82
-602
-215
6.2325959205627
2
255
6
60
10
-987
-35
0.40795612335205
2
255
6
60
10
-946
-55
6.2006149291992
2
255
6
60
10
-899
-48
0.19955538213253
2
255
6
60
10
-864
-57
6.2601127624512
2
255
6
60
10
-793
-56
6.0577273368835
2
255
30
45
47
-930
-79
0.051237165927887
0
255
30
45
47
-897
-78
6.2135310173035
0
255
30
45
47
-840
-67
0.46364760398865
0
255
30
45
47
-817
-81
6.2662377357483
0
255
26
12
12
-989
-42
0.44751998782158
2
255
26
12
12
-901
-53
0.23109066486359
2
255
26
12
12
-869
-56
0.24497866630554
2
255
26
12
12
-795
-59
6.0756893157959
2
255
26
12
12
-760
-53
6.0857901573181
2
255
24
25
11
-839
-56
0.031239833682775
0
255
24
25
11
-1124
-139
6.2691020965576
0
255
25
50
6
-363
-65
1.6784862279892
1
255
25
50
6
-325
-65
1.4464412927628
1
255
1
40
10
-373
-103
0.36990606784821
2
255
1
40
10
-344
-116
5.9834094047546
2
255
2
92
92
-361
-102
-0
0
255
2
92
92
-353
-110
-0
0
255
2
92
92
-361.41333007812
-107.11192321777
-0
0
255
2
92
92
-329
-107.91723632812
1.5707963705063
0
255
9
32
32
-361
-108
0.024686342105269
1
255
26
12
12
-326.83642578125
-82.182067871094
-0
2
255
26
12
12
-367
-81
-0
2
255
6
60
10
-322
-79
0.24497866630554
2
255
6
60
10
-420
-104
5.9203190803528
2
255
26
12
12
-423
-105
0.028563657775521
2
255
26
12
12
-274
-96
0.06053201854229
2
255
31
16
20
-349
-100
-0
0
255
25
50
6
-135
-84
-0
2
255
2
92
92
-146
-32
-0
1
255
32
28
205
-149.47973632812
-27.16943359375
4.7123889923096
1
255
32
28
205
293.46435546875
-4.6414489746094
4.7123889923096
1
255
33
70
40
-48
-35
-0
0
255
33
70
40
-15
-23
6.2705278396606
0
255
33
70
40
7
-4
-0
0
255
33
70
40
129
-40
0.021273385733366
0
255
33
70
40
150
-36
0.018179815262556
0
255
33
70
40
-156
-27
6.1818389892578
0
255
33
70
40
-128
-31
0.12435499578714
0
255
33
70
40
44
-17
-0
0
255
33
70
40
211
-22
0.15037143230438
0
255
15
48
9
-131.55078125
-90.778793334961
-0
1
255
15
48
9
-91.443359375
-90.72509765625
-0
1
255
15
48
9
-51.3681640625
-90.72509765625
-0
1
255
15
48
9
-11.29248046875
-90.639175415039
-0
1
255
15
48
9
28.689453125
-90.585891723633
-0
1
255
15
48
9
68.666015625
-90.585891723633
-0
1
255
15
48
9
108.61279296875
-90.565689086914
-0
1
255
15
48
9
148.55322265625
-90.565689086914
-0
1
255
15
48
9
188.4814453125
-90.522048950195
-0
1
255
15
48
9
228.4501953125
-90.522048950195
-0
1
255
13
25
25
-188.94482421875
-187.26582336426
6.2554149627686
2
255
15
48
9
-207.94482421875
-196.26583862305
6.2700281143188
1
255
16
46
46
-205.94482421875
-221.26599121094
0.0046511292457581
2
255
8
15
11
-162
-197
0.017855245620012
1
255
8
15
11
-207
-199
6.2554149627686
1
255
13
25
25
320.40234375
-193.56848144531
-6.2554149627686
2
255
15
48
9
339.40234375
-202.56851196289
-6.2700281143188
1
255
16
46
46
337.40234375
-227.56866455078
-0.0046511292457581
2
255
8
15
11
293.45751953125
-203.30267333984
-0.017855245620012
1
255
8
15
11
338.45751953125
-205.30267333984
-6.2554149627686
1
255
21
16
16
-1666
-173
0.16859693825245
0
255
21
16
16
-1651
-177
-0
0
255
21
16
16
-1660
-190
0.064426839351654
0
255
7
14
12
-1605
-165
6.0128602981567
2
255
7
14
12
-1597
-163
5.6303386688232
2
255
7
14
12
-1604
-168
6.2131247520447
2
255
18
33
23
-1762
-118
0.38777017593384
2
255
35
128
128
89
-111
0
1
255
35
128
128
82
-123
0
1
255
35
128
128
58
-153
0
1
255
35
128
128
30
-196
0
1
255
35
128
128
-6
-277
0
1
255
35
128
128
-47
-344
0
1
255
13
25
25
170
-84
0
2
255
13
25
25
183
-84
0
2
255
13
25
25
92
-84
0
2
255
13
25
25
100
-84
0
2
255
13
25
25
-86
-84
0
2
255
36
128
128
51.52685546875
-71.021194458008
6.2732796669006
2
255
1
40
10
475
-75
0.13909594714642
1
255
1
40
10
518
-82
6.2673139572144
2
255
1
40
10
552
-81
0.043450895696878
2
255
1
40
10
584
-83
0.080471009016037
2
255
1
40
10
623
-46
1.7168086767197
1
255
1
40
10
536
-24
1.5515679121017
1
255
1
40
10
584
-37
1.6767808198929
1
255
1
40
10
537
-53
1.4994888305664
2
255
1
40
10
581
-58
1.6767808198929
2
255
16
46
46
479
-73
0.11211071163416
2
255
16
46
46
520
-78
0.014491738751531
2
255
16
46
46
566
-78
0.11408577859402
2
255
25
50
6
371.96826171875
-83.468338012695
1.6784862279892
1
255
25
50
6
409.96826171875
-83.468338012695
1.4464412927628
1
255
1
40
10
361.96826171875
-121.46832275391
0.36990606784821
2
255
1
40
10
390.96826171875
-134.46830749512
5.9834094047546
2
255
2
92
92
373.96826171875
-120.46832275391
-0
0
255
2
92
92
381.96826171875
-128.46830749512
-0
0
255
2
92
92
373.5546875
-125.58023071289
-0
0
255
2
92
92
405.96826171875
-126.38554382324
1.5707963705063
0
255
9
32
32
373.96826171875
-126.46830749512
0.024686342105269
1
255
31
16
20
385.96826171875
-118.46832275391
-0
0
255
6
60
10
414
-102
6.1075010299683
2
255
6
60
10
331
-100
6.1925253868103
2
255
26
12
12
368
-101
0.086738340556622
2
255
26
12
12
412
-106
-0
2
255
26
12
12
459
-97
6.1637563705444
2
255
26
12
12
327
-104
0.16514867544174
2
255
14
100
10
-219
-90
6.2483158111572
1
255
14
100
10
510
-32
0.24941322207451
1
255
14
100
10
608
-56
0.22311335802078
1
255
14
100
10
751
-70
6.1488642692566
1
255
14
100
10
792
-63
0.12546363472939
1
255
14
100
10
869
-59
6.2281231880188
1
255
6
60
10
1281
-180
0.38909724354744
2
255
6
60
10
1233
-147
0.55385440587997
2
255
6
60
10
1239
-96
0.18789787590504
2
255
6
60
10
1309
-108
0.43833655118942
2
255
6
60
10
1349
-127
0.059141475707293
2
255
6
60
10
1422
-128
0.32962441444397
2
255
6
60
10
1466
-143
6.1180367469788
2
255
6
60
10
1408
-162
6.0904846191406
2
255
6
60
10
1349
-156
0.17539422214031
2
255
6
60
10
1291
-139
0.31070128083229
2
255
6
60
10
1239
-141
6.2551555633545
2
255
6
60
10
1508
-160
5.6448655128479
2
255
6
60
10
1489
-186
5.3871302604675
2
255
6
60
10
1454
-197
5.9573864936829
2
255
6
60
10
1355
-121
5.9381833076477
2
255
6
60
10
1404
-102
0.23317980766296
2
255
26
12
12
1450
-203
6.2447428703308
2
255
26
12
12
1506
-169
5.8782935142517
2
255
26
12
12
1544
-138
5.6396842002869
2
255
26
12
12
1464
-149
6.1835169792175
2
255
26
12
12
1511
-138
-0
2
255
26
12
12
1396
-170
-0
2
255
26
12
12
1418
-134
0.14189705252647
2
255
26
12
12
1461
-120
6.1783084869385
2
255
26
12
12
1398
-108
0.17073521018028
2
255
26
12
12
1348
-133
0.16514867544174
2
255
26
12
12
1288
-148
0.32175055146217
2
255
26
12
12
1305
-114
0.24497866630554
2
255
26
12
12
1237
-104
0.066568166017532
2
255
26
12
12
1235
-154
0.11065722256899
2
255
26
12
12
1280
-190
0.30288487672806
2
255
26
12
12
1326.0463867188
-204.52044677734
0.14189705252647
2
255
10
35
14
1425
-210
0.15037143230438
2
255
37
35
14
1327
-218
6.2226533889771
2
255
11
80
82
756
-139
0.099668651819229
2
255
11
80
82
1067
-189
6.2437324523926
0
255
8
15
11
1365
-208
0.043450895696878
2
255
8
15
11
1411
-208
6.2680349349976
2
255
6
60
10
933
-54
0.50284320116043
2
255
6
60
10
970
-75
0.20997351408005
2
255
6
60
10
927
-61
0.50579130649567
2
255
6
60
10
967
-84
0.17722538113594
2
255
6
60
10
924
-68
0.49221125245094
2
255
6
60
10
964
-91
0.20176234841347
2
255
5
10
12
1007
-103
0.21866895258427
2
255
5
10
12
921
-69
0.49394136667252
2
255
14
100
10
1048
-107
0.3470616042614
1
255
14
100
10
1092
-120
6.1353359222412
1
255
14
100
10
1130
-115
5.6481585502625
1
255
14
100
10
968
-74
0.29145678877831
1
255
2
92
92
1231
-118
-0
0
255
3
64
64
1231
-78
-0
0
255
14
100
10
1678
-119
6.2352771759033
1
255
14
100
10
1729
-117
5.8280844688416
1
255
14
100
10
1821
-102
0.060794554650784
1
255
14
100
10
1917
-92
6.2540674209595
1
255
13
25
25
1363
-198
0
2
255
13
25
25
1371
-198
0
2
255
13
25
25
1432
-198
0
2
255
13
25
25
519
-82
6.2588000297546
2
255
13
25
25
584
-83
0.091579847037792
2
255
13
25
25
283
-230
0.024585209786892
2
255
1
40
10
1985
-35
-0
2
255
1
40
10
1985
-56
4.7578125
2
255
1
40
10
1958
-84
5.4911208152771
2
255
1
40
10
2020
-34
1.311464548111
2
255
1
40
10
2026
-56
0.95385444164276
2
255
8
15
11
1944
-88
0.27094686031342
2
255
8
15
11
1951
-92
5.8883943557739
2
255
8
15
11
1947
-93
6.2319483757019
2
255
8
15
11
2045
-86
0.20401798188686
2
255
8
15
11
2050
-87
6.1140842437744
2
255
8
15
11
2046
-91
0.071307465434074
2
255
38
128
128
1953
-80
0.0052355541847646
0
255
18
33
23
1765
-90
0.3091989159584
2
255
11
80
82
1680
-189
0.06320682913065
2
255
11
80
82
1712
-172
6.1496562957764
0
255
11
80
82
1808
-146
0.28605145215988
0
255
25
50
6
2259.2543945312
8.0163879394531
1.6784862279892
1
255
25
50
6
2297.2543945312
8.0163879394531
1.4464412927628
1
255
1
40
10
2249.2543945312
-29.983612060547
0.36990606784821
2
255
1
40
10
2278.2543945312
-42.983703613281
5.9834094047546
2
255
2
92
92
2261.2543945312
-28.983612060547
-0
0
255
2
92
92
2269.2543945312
-36.983642578125
-0
0
255
2
92
92
2260.8408203125
-34.095550537109
-0
0
255
2
92
92
2293.2543945312
-34.90087890625
1.5707963705063
0
255
9
32
32
2261.2543945312
-34.983642578125
0.024686342105269
1
255
31
16
20
2273.2543945312
-26.983612060547
-0
0
255
26
12
12
2255.2861328125
-9.5152893066406
0.086738340556622
2
255
26
12
12
2299.2861328125
-14.515289306641
-0
2
255
6
60
10
2302
-10
0.2125668078661
2
255
6
60
10
2214
-32
5.816065788269
2
255
26
12
12
2350
-23
0.1798534989357
2
255
26
12
12
2212
-37
5.9291882514954
2
255
29
50
11
2057
-90
0.1526493281126
1
255
29
50
11
2110
-100
6.2559194564819
1
255
21
16
16
2085
-103
0
0
255
21
16
16
2104
-103
0
0
255
21
16
16
2095
-119
0
0
255
19
16
16
2123
-108
0
2
255
11
80
82
2174
-138
6.0436024665833
2
255
39
224
122
2726
-44
0
2
255
35
128
128
2793
-37
0
2
255
35
128
128
2751
-114
0
2
255
35
128
128
2721
-190
0
2
255
35
128
128
2680
-273
0
2
255
35
128
128
2600
-402
0
2
255
35
128
128
2498
-573
0
2
255
14
100
10
2395
-11
0.20401798188686
1
255
14
100
10
2520
-38
0.10673566907644
1
255
14
100
10
2668
-88
0.018516402691603
1
255
14
100
10
2961
-94
6.1440896987915
1
255
14
100
10
3040
-95
0.56408369541168
1
255
2
92
92
3375
-134
-0
0
255
3
64
64
3375
-94
-0
0
255
4
64
32
3439
-222
-0
2
255
40
16
48
3494
-236
0
0
255
13
25
25
3523
-222
0
2
255
13
25
25
3535
-222
0
2
255
13
25
25
3442
-222
0
2
255
13
25
25
3452
-222
0
2
255
7
14
12
3437
-232
0
2
255
7
14
12
3443
-232
5.8370800018311
2
255
8
15
11
3553
-229
6.1670436859131
2
255
8
15
11
3558
-225
0.48251330852509
2
255
8
15
11
3555
-231
0.032246883958578
2
255
8
15
11
3432
-184
0
2
255
8
15
11
3444
-184
0
2
255
8
15
11
3438
-193
0
2
255
18
33
23
2554
-36
0.42520502209663
2
255
21
16
16
2485
-35
0.15431877970695
0
255
21
16
16
2499
-38
0.11710874736309
0
255
21
16
16
2489
-51
0.1206236705184
0
255
7
14
12
2669
-90
0.028977394104004
2
255
7
14
12
2679
-86
6.0539536476135
2
255
7
14
12
2666
-79
0.58800262212753
2
255
6
60
10
2957
-95
6.0756893157959
2
255
6
60
10
3000
-82
0.38352751731873
2
255
6
60
10
3063
-107
0.56490439176559
2
255
26
12
12
2955
-101
0.033320996910334
2
255
26
12
12
3001
-89
0.079829983413219
2
255
26
12
12
3057
-110
0.46364760398865
2
255
26
12
12
3093
-133
0.48088729381561
2
255
30
45
47
3134
-181
0.29544082283974
2
255
30
45
47
3170
-190
0.021735707297921
2
255
30
45
47
3205
-194
6.0720920562744
2
255
6
60
10
3136
-180
0.36254423856735
2
255
6
60
10
3169
-194
6.2432069778442
2
255
6
60
10
3205
-192
6.2086968421936
2
255
6
60
10
3140
-159
0.28255495429039
2
255
6
60
10
3170
-169
6.2222852706909
2
255
6
60
10
3204
-168
6.0777902603149
2
255
6
60
10
3142
-169
0.27829965949059
2
255
6
60
10
3180
-181
6.2000441551208
2
255
6
60
10
3215
-178
6.0539536476135
2
255
6
60
10
3397
-183
-0
2
255
6
60
10
3361
-168
0.39305803179741
2
255
6
60
10
3562
-182
0.12914729118347
2
255
6
60
10
3595
-187
6.1496562957764
2
255
26
12
12
3360
-172
0.39951547980309
2
255
26
12
12
3393
-185
0.086738340556622
2
255
26
12
12
3594
-190
0.033320996910334
2
255
26
12
12
3627
-187
5.9951300621033
2
255
1
40
10
4502.3994140625
-121.39631652832
-0.12038282305002
1
255
1
40
10
4409.3994140625
-87.396331787109
-1.5565116405487
2
255
1
40
10
4406.3994140625
-91.396331787109
-6.2266421318054
2
255
1
40
10
4421.3994140625
-80.396377563477
-0.80126982927322
2
255
1
40
10
4407.3994140625
-113.39631652832
-0.75151282548904
2
255
1
40
10
4406.3994140625
-110.39631652832
-2.5015046596527
2
255
1
40
10
4280.3994140625
-32.396331787109
0
2
255
1
40
10
4287.3994140625
-58.396408081055
-5.0108880996704
2
255
1
40
10
4245.3984375
-30.396331787109
-1.1571071147919
2
255
1
40
10
4320.3994140625
-67.396392822266
-1.4711276292801
2
255
1
40
10
4345.3994140625
-70.396377563477
-0.10308160632849
2
255
1
40
10
4317.3994140625
-74.396392822266
-5.8288831710815
2
255
1
40
10
4312.3994140625
-110.39631652832
-0.63754880428314
2
255
1
40
10
4313.3994140625
-106.39630126953
-2.2774105072021
2
255
1
40
10
4177.3984375
-68.396392822266
-1.6794576644897
2
255
1
40
10
4174.3984375
-72.396377563477
-0.34653887152672
2
255
1
40
10
4203.3984375
-70.396377563477
-0.12283524125814
2
255
1
40
10
4177.3984375
-110.39631652832
-0.75683450698853
2
255
1
40
10
4178.3984375
-106.39630126953
-2.4292352199554
2
255
1
40
10
4005.3989257812
-133.39633178711
-6.1180367469788
1
255
1
40
10
4061.3994140625
-85.396331787109
-1.4852910041809
2
255
1
40
10
4055.3994140625
-116.39631652832
-0.63502675294876
2
255
1
40
10
4054.3994140625
-112.39631652832
-2.5075700283051
2
255
1
40
10
4079.3994140625
-88.396331787109
0
2
255
1
40
10
4057.3994140625
-88.396331787109
-5.7920217514038
2
255
2
92
92
4497.3994140625
-120.39631652832
0
0
255
2
92
92
4449.3994140625
-128.39633178711
0
0
255
2
92
92
4201.3984375
-136.39633178711
0
0
255
2
92
92
4177.3984375
-128.39633178711
0
0
255
2
92
92
3969.6674804688
-121.47004699707
0
0
255
3
64
64
4514.833984375
-116.83375549316
-6.2828025817871
0
255
14
100
10
4433.3994140625
-138.39633178711
-0.040793683379889
1
255
14
100
10
4201.3984375
-145.3963470459
-6.2239327430725
1
255
11
80
82
4572.3994140625
-232.3963470459
-6.1542749404907
2
255
14
100
10
3751
-100
0.27032533288002
1
255
14
100
10
3854
-135
6.2774386405945
1
255
11
80
82
3814
-207
0.12219516932964
2
255
11
80
82
2997
-166
0.26625204086304
0
255
11
80
82
3789
-195
0.062418811023235
0
255
41
154
154
-552
-457
0
0
255
42
128
128
-566.59985351562
-474.40002441406
0
0
42
8
col4.bmp
9
blank.bmp
8
fade.png
10
bunker.bmp
11
barrel3.bmp
13
barbwire2.bmp
13
sandbags2.bmp
13
sandbags3.bmp
11
camonet.bmp
8
0007.bmp
11
s_tree1.bmp
12
m_crater.png
10
liana2.bmp
9
grass.bmp
17
cbble_railing.bmp
12
camonet3.bmp
13
rir-line1.bmp
12
branches.bmp
13
cs_crate1.bmp
12
grillage.bmp
13
rir-kiste.bmp
14
rir-kiste4.bmp
19
rir-kistewaffen.bmp
12
carcass3.bmp
8
col3.bmp
11
barrel2.bmp
17
xt_ap_vine_02.bmp
19
cs_siege_crate2.bmp
11
rubble2.bmp
5
x.bmp
16
rir-firstaid.bmp
19
fx_li_beam_half.png
17
veg_tropic_13.png
18
rir_brndcar01s.bmp
17
amb_cloud1-sk.png
17
xt_ap_vine_01.png
10
0007-2.bmp
18
tx_ancientwall.bmp
13
wb-crater.png
14
rir-leiter.bmp
14
amb_sun-sk.png
18
fx_li_spot3-sk.png
55
1
-1317.6704101562
-186.03286743164
15
1
-1387.8608398438
-191.75491333008
15
1
-3112.9790039062
-152.29818725586
15
1
-3057.1892089844
-152.29818725586
15
1
-199.29248046875
-191.45175170898
15
1
-155.33618164062
-190.27734375
15
1
-321.89477539062
-77.682800292969
10
1
-321.89477539062
-74.799224853516
10
1
-362.00268554688
-76.372085571289
10
1
-842.22509765625
-154.48750305176
14
1
-887.0537109375
-156.63497924805
14
1
-3603.1264648438
-341.95449829102
14
1
-3649.4111328125
-342.36410522461
14
1
286.1650390625
-197.75440979004
15
1
330.12158203125
-196.58000183105
15
1
-1598.7905273438
-157.51324462891
14
1
98.76513671875
-92.88720703125
14
1
49.48583984375
-93.909606933594
14
1
371.47314453125
-97.490631103516
7
1
372.1279296875
-92.255935668945
7
1
415.96826171875
-102.59446716309
8
1
415.83740234375
-96.051086425781
8
1
1330.9565429688
-200.9720916748
10
1
1332.4326171875
-192.51638793945
10
1
1453.5551757812
-198.62329101562
10
1
1453.4208984375
-192.71769714355
10
1
1371.8413085938
-201.18283081055
15
1
1417.9790039062
-201.18283081055
15
1
2130.439453125
-100.67753601074
15
1
2259.5454101562
-6.0145263671875
9
1
2259.712890625
-0.64581298828125
9
1
2303.333984375
-10.879913330078
9
1
2303.166015625
-4.3367919921875
9
1
928.2353515625
-67.21337890625
12
1
931.5908203125
-60.502502441406
12
1
935.99462890625
-53.162475585938
12
1
1013.169921875
-99.509475708008
12
1
1015.6860351562
-90.701446533203
12
1
1017.3637695312
-81.683700561523
12
1
2676.2631835938
-80.072113037109
15
1
3560.0815429688
-224.38812255859
15
1
3443.9379882812
-222.58868408203
15
1
3141.0888671875
-176.80795288086
7
1
3161.9458007812
-185.6005859375
7
1
3174.85546875
-184.85301208496
7
1
3199.14453125
-187.57504272461
7
1
3209.1943359375
-186.52810668945
7
1
3236.8334960938
-183.17790222168
7
1
3153.775390625
-170.00079345703
7
1
3186.2368164062
-174.34600830078
7
1
3220.4868164062
-173.32359313965
7
1
3629.6494140625
-182.6063079834
9
1
3627.6044921875
-176.98310852051
9
1
3365.298828125
-170.47613525391
9
1
3367.916015625
-165.07786560059
9
48
1
-3829
-210
5
1
-4460
-123
1
1
-4387
-154
1
1
-4346
-133
1
1
-4261
-96
1
1
-4192
-136
1
1
-4110
-146
1
1
-4004
-136
1
1
4458
-68
2
1
4360
-84
2
1
4260
-39
2
1
4207
-82
2
1
4129
-89
2
1
4097
-94
2
1
4012
-84
2
1
3975
-99
2
1
3776
-108
6
1
-4084
-191
7
1
-4158
-192
7
1
4159
-141
7
1
4299
-138
7
1
-2793
-78
7
1
-2426
-61
7
1
-1771
-114
7
1
-1368
-192
7
1
-874
-157
7
1
-341
-78
7
1
394
-98
7
1
541
-34
7
1
1216
-8
7
1
1525
-58
7
1
1386
-204
7
1
1995
-41
7
1
2815
-14
7
1
2838
-15
8
1
2013
-41
8
1
1402
-204
8
1
551
-35
8
1
310
-201
8
1
-177
-196
8
1
-858
-158
8
1
-1346
-193
8
1
-2104
-164
8
1
-2533
-52
8
1
-2835
-78
8
1
-3090
-125
8
1
-3327
-112
8
1
-3617
-130
8
